"","samplename","sampleid","total","extracted","tagdust","rdna","spikes","mapped","properpairs","counts","Run","Well","row","column","mean_ch2","bg_mean_ch2","mean_ch3","bg_mean_ch3","Error","Comment","Concentration"
"1772-066-262_A01","1772-066-262_A01",1,71285,39149,334,3783,7382,20417,7932,5855,"1772-066-262","A01","01","A",1527.508,1334.672,11.561,9.51,"0-No Error","No comment",0.604
"1772-066-262_A02","1772-066-262_A02",2,67823,36741,359,3067,5972,19395,7533,5565,"1772-066-262","A02","02","A",1108.525,916.046,9.524,9.585,"0-No Error","No comment",0.654
"1772-066-262_A03","1772-066-262_A03",3,65242,36434,228,5352,5161,20058,10873,8676,"1772-066-262","A03","03","A",1342.814,924.038,9.55,9.532,"4-MultipleCells","No comment",0.67
"1772-066-262_A04","1772-066-262_A04",4,73376,41595,250,5300,5018,25146,13990,10413,"1772-066-262","A04","04","A",1846.858,921.374,10.634,9.735,"4-MultipleCells","Maybe",0.694
"1772-066-262_A05","1772-066-262_A05",5,89267,37574,650,3370,6164,20645,8016,5895,"1772-066-262","A05","05","A",2082.358,934.38,10.082,9.686,"0-No Error","No comment",0.656
"1772-066-262_A06","1772-066-262_A06",6,69113,34570,820,2490,5865,19006,5932,4633,"1772-066-262","A06","06","A",2060.654,916.687,10.007,9.739,"0-No Error","No comment",0.623
"1772-066-262_A07","1772-066-262_A07",7,78647,41450,597,4392,7983,20426,7239,5435,"1772-066-262","A07","07","A",1530.834,942.601,10.297,9.635,"0-No Error","No comment",0.603
"1772-066-262_A08","1772-066-262_A08",8,60514,35486,269,5747,4698,20767,10953,8321,"1772-066-262","A08","08","A",2348.633,910.175,10.575,9.656,"0-No Error","No comment",0.589
"1772-066-262_A09","1772-066-262_A09",9,71172,37870,605,3469,6247,19234,6221,4475,"1772-066-262","A09","09","A",1389.216,906.338,9.994,9.191,"0-No Error","No comment",0.609
"1772-066-262_A10","1772-066-262_A10",10,78195,43273,585,5950,6068,24300,10746,8040,"1772-066-262","A10","10","A",1003.714,908.788,10.855,9.38,"4-MultipleCells","Maybe",0.615
"1772-066-262_A11","1772-066-262_A11",11,94034,47400,1840,5239,5475,28919,13465,10364,"1772-066-262","A11","11","A",1724.066,910.01,11.161,10.045,"4-MultipleCells","No comment",0.612
"1772-066-262_A12","1772-066-262_A12",12,85090,42430,1517,4054,5420,26447,12210,8629,"1772-066-262","A12","12","A",2469.521,908.691,9.975,9.476,"0-No Error","No comment",0.656
"1772-066-262_B01","1772-066-262_B01",13,61112,37677,214,6271,4674,21392,12312,9095,"1772-066-262","B01","01","B",1546.278,957.858,11.226,9.781,"0-No Error","No comment",0.574
"1772-066-262_B02","1772-066-262_B02",14,50981,29363,235,3568,5048,14903,6665,4885,"1772-066-262","B02","02","B",1902.666,896.705,9.93,9.648,"0-No Error","No comment",0.582
"1772-066-262_B03","1772-066-262_B03",15,58449,33822,215,4914,6044,16877,8192,6086,"1772-066-262","B03","03","B",1734.813,891.601,10.297,9.645,"0-No Error","No comment",0.571
"1772-066-262_B04","1772-066-262_B04",16,54231,31402,187,4606,4174,16372,8978,7028,"1772-066-262","B04","04","B",1494.226,889.289,9.869,9.659,"0-No Error","No comment",0.613
"1772-066-262_B05","1772-066-262_B05",17,52801,26626,372,4021,3715,14342,6754,5204,"1772-066-262","B05","05","B",1491.587,905.378,10.825,9.906,"0-No Error","No comment",0.626
"1772-066-262_B06","1772-066-262_B06",18,46381,26344,361,3585,3486,15637,8207,6216,"1772-066-262","B06","06","B",1376.331,965.793,10.559,10.342,"0-No Error","No comment",0.602
"1772-066-262_B07","1772-066-262_B07",19,53672,31294,354,4996,3502,17150,8761,6656,"1772-066-262","B07","07","B",1530.335,915.92,10.603,10.17,"0-No Error","No comment",0.597
"1772-066-262_B08","1772-066-262_B08",20,52948,30198,212,4789,3952,16552,8766,6689,"1772-066-262","B08","08","B",1583.711,920.892,10.091,10.045,"0-No Error","No comment",0.587
"1772-066-262_B09","1772-066-262_B09",21,53401,29031,347,4583,4164,15473,7341,5524,"1772-066-262","B09","09","B",1614.128,951.292,10.345,10.043,"0-No Error","No comment",0.591
"1772-066-262_B10","1772-066-262_B10",22,51658,28608,298,4213,3577,16689,8798,6817,"1772-066-262","B10","10","B",1605.584,965.665,10.904,9.716,"4-MultipleCells","Maybe",0.611
"1772-066-262_B11","1772-066-262_B11",23,47524,26207,596,4715,2488,15675,8362,6465,"1772-066-262","B11","11","B",1739.161,921.493,10.085,9.969,"4-MultipleCells","2",0.601
"1772-066-262_B12","1772-066-262_B12",24,43070,20417,638,1874,3152,11250,5368,3889,"1772-066-262","B12","12","B",2389.059,924.008,204.525,9.535,"6-Dead","Leaking",0.594
"1772-066-262_C01","1772-066-262_C01",25,67999,38269,172,4683,5171,27604,19775,17135,"1772-066-262","C01","01","C",2192.911,920.154,140.001,9.802,"5-Control","Positive control",0.468
"1772-066-262_C02","1772-066-262_C02",26,52026,27534,336,68,5908,10944,3035,1981,"1772-066-262","C02","02","C",2046.098,922.263,276.2,10.281,"6-Dead","No comment",0.575
"1772-066-262_C03","1772-066-262_C03",27,67677,40751,213,6298,6260,20750,10446,7643,"1772-066-262","C03","03","C",1616.458,912.145,10.552,10.527,"0-No Error","No comment",0.577
"1772-066-262_C04","1772-066-262_C04",28,43301,25654,106,3616,3486,13865,6920,5131,"1772-066-262","C04","04","C",1431.316,922.087,10.085,10.128,"0-No Error","No comment",0.577
"1772-066-262_C05","1772-066-262_C05",29,62784,32531,373,3376,5640,17497,7827,5577,"1772-066-262","C05","05","C",1887.134,925.587,160.679,9.954,"6-Dead","No comment",0.54
"1772-066-262_C06","1772-066-262_C06",30,52605,29831,496,4505,3401,16518,7930,5901,"1772-066-262","C06","06","C",1618.42,912.349,10.409,10.13,"0-No Error","No comment",0.551
"1772-066-262_C07","1772-066-262_C07",31,53778,31187,369,5005,3491,16964,8623,6335,"1772-066-262","C07","07","C",1593.358,929.321,10.709,10.063,"0-No Error","No comment",0.565
"1772-066-262_C08","1772-066-262_C08",32,55273,32496,294,5254,4295,18556,9174,6688,"1772-066-262","C08","08","C",1566.684,920.237,10.497,9.777,"0-No Error","No comment",0.562
"1772-066-262_C09","1772-066-262_C09",33,65577,37323,460,5844,4946,22216,10997,8046,"1772-066-262","C09","09","C",1605.648,921.198,10.007,9.993,"0-No Error","No comment",0.528
"1772-066-262_C10","1772-066-262_C10",34,56157,30917,514,2526,4204,17413,7130,5294,"1772-066-262","C10","10","C",1814.627,922.88,37.856,9.683,"6-Dead","No comment",0.513
"1772-066-262_C11","1772-066-262_C11",35,62347,32389,1068,4184,3620,18840,9219,6797,"1772-066-262","C11","11","C",1171.682,918.923,10.578,10.073,"0-No Error","No comment",0.598
"1772-066-262_C12","1772-066-262_C12",36,48490,23463,993,1663,3663,11862,3593,2728,"1772-066-262","C12","12","C",1029.647,926.923,9.817,10.003,"0-No Error","No comment",0.599
"1772-066-262_D01","1772-066-262_D01",37,89878,36194,251,68,17866,14202,30,30,"1772-066-262","D01","01","D",2122.947,927.622,10.613,10.133,"5-Control","Negative control",0.503
"1772-066-262_D02","1772-066-262_D02",38,57847,34361,248,5806,5486,16395,6602,4851,"1772-066-262","D02","02","D",1638.302,934.746,11.756,10.127,"0-No Error","No comment",0.531
"1772-066-262_D03","1772-066-262_D03",39,63475,38285,275,5329,5971,19233,8952,6632,"1772-066-262","D03","03","D",1811.018,957.208,11.011,10.566,"0-No Error","No comment",0.538
"1772-066-262_D04","1772-066-262_D04",40,73427,41444,289,4145,8363,21375,9989,6927,"1772-066-262","D04","04","D",2272.197,958.765,171.765,10.947,"6-Dead","No comment",0.517
"1772-066-262_D05","1772-066-262_D05",41,85018,43708,761,5238,7093,23895,9249,6610,"1772-066-262","D05","05","D",1205.274,969.029,10.691,10.795,"0-No Error","No comment",0.532
"1772-066-262_D06","1772-066-262_D06",42,54187,30412,662,3939,3407,18162,8551,6038,"1772-066-262","D06","06","D",1305.366,935.268,11.296,9.986,"4-MultipleCells","Maybe",0.586
"1772-066-262_D07","1772-066-262_D07",43,65298,39060,450,5679,4683,22793,11621,8204,"1772-066-262","D07","07","D",1584.932,950.628,10.56,9.985,"0-No Error","No comment",0.55
"1772-066-262_D08","1772-066-262_D08",44,59211,36621,322,5550,3744,21793,11286,8174,"1772-066-262","D08","08","D",2009.888,960.633,11.251,10.331,"0-No Error","No comment",0.512
"1772-066-262_D09","1772-066-262_D09",45,64023,38092,520,7496,3907,20666,9915,7013,"1772-066-262","D09","09","D",1375.521,939.01,10.919,10.325,"0-No Error","No comment",0.502
"1772-066-262_D10","1772-066-262_D10",46,73491,39805,687,4258,5892,21755,9183,6503,"1772-066-262","D10","10","D",1133.385,939.44,10.577,10.27,"0-No Error","No comment",0.543
"1772-066-262_D11","1772-066-262_D11",47,53545,25614,1139,1848,3905,12281,3358,2425,"1772-066-262","D11","11","D",1646.712,956.296,10.518,10.219,"0-No Error","No comment",0.547
"1772-066-262_D12","1772-066-262_D12",48,53635,24898,1226,1577,4561,12049,2984,2324,"1772-066-262","D12","12","D",1363.929,953.617,10.506,10.539,"0-No Error","No comment",0.574
"1772-066-262_E01","1772-066-262_E01",49,68765,39040,239,5065,7694,21687,9643,6696,"1772-066-262","E01","01","E",1321.222,927.559,10.11,9.913,"0-No Error","No comment",0.515
"1772-066-262_E02","1772-066-262_E02",50,65837,38214,205,6212,6109,20518,12563,8413,"1772-066-262","E02","02","E",1208.832,972.462,12.141,10.959,"0-No Error","No comment",0.519
"1772-066-262_E03","1772-066-262_E03",51,77558,46736,259,7448,7036,25714,14221,10125,"1772-066-262","E03","03","E",2692.912,968.437,131.411,10.45,"6-Dead","2",0.505
"1772-066-262_E04","1772-066-262_E04",52,31675,19607,121,2299,3238,9223,3564,2759,"1772-066-262","E04","04","E",1597.352,966.406,10.561,10.655,"0-No Error","No comment",0.526
"1772-066-262_E05","1772-066-262_E05",53,82142,45291,424,5777,5511,27565,14064,10290,"1772-066-262","E05","05","E",1610.932,929.122,10.127,10.01,"4-MultipleCells","Maybe",0.52
"1772-066-262_E06","1772-066-262_E06",54,62273,36336,548,3837,5383,20647,8961,6412,"1772-066-262","E06","06","E",1139.82,922.077,10.047,9.791,"0-No Error","No comment",0.535
"1772-066-262_E07","1772-066-262_E07",55,61220,36605,468,5307,4432,22045,10844,7740,"1772-066-262","E07","07","E",2047.004,952.314,10.237,9.662,"4-MultipleCells","2",0.509
"1772-066-262_E08","1772-066-262_E08",56,59689,33353,365,5641,5305,16033,5612,4182,"1772-066-262","E08","08","E",1232.589,906.908,13.691,9.186,"6-Dead","No comment",0.485
"1772-066-262_E09","1772-066-262_E09",57,69077,32989,891,184,7757,14546,3110,1972,"1772-066-262","E09","09","E",2231.591,910.549,164.62,9.527,"6-Dead","No comment",0.484
"1772-066-262_E10","1772-066-262_E10",58,73526,36456,729,3306,5859,20859,8543,5998,"1772-066-262","E10","10","E",1187.531,907.589,10.057,9.89,"0-No Error","No comment",0.601
"1772-066-262_E11","1772-066-262_E11",59,66254,31704,1781,1953,4113,16861,5057,3463,"1772-066-262","E11","11","E",1526.184,907.094,9.426,9.939,"0-No Error","No comment",0.536
"1772-066-262_E12","1772-066-262_E12",60,51689,25463,1115,2630,3347,13733,5203,3922,"1772-066-262","E12","12","E",1477.297,966.425,10.779,10.51,"0-No Error","No comment",0.534
"1772-066-262_F01","1772-066-262_F01",61,54135,30836,266,2581,6728,15336,4891,3529,"1772-066-262","F01","01","F",1938.865,904.492,9.659,9.715,"0-No Error","No comment",0.517
"1772-066-262_F02","1772-066-262_F02",62,61315,31613,296,612,7677,14824,5216,3376,"1772-066-262","F02","02","F",1792.27,902.015,141.517,9.687,"6-Dead","No comment",0.462
"1772-066-262_F03","1772-066-262_F03",63,56692,33156,275,3010,5987,15765,6266,4626,"1772-066-262","F03","03","F",1375.165,887.876,9.242,9.707,"0-No Error","No comment",0.504
"1772-066-262_F04","1772-066-262_F04",64,72628,43692,300,5494,6539,23971,10909,7787,"1772-066-262","F04","04","F",1138.208,887.679,9.314,10.116,"0-No Error","No comment",0.503
"1772-066-262_F05","1772-066-262_F05",65,93011,45667,433,5626,6904,25995,11060,7806,"1772-066-262","F05","05","F",1261.553,906.573,10.193,9.869,"0-No Error","No comment",0.52
"1772-066-262_F06","1772-066-262_F06",66,66273,37706,369,4132,5872,21186,8825,6046,"1772-066-262","F06","06","F",1080.511,901.388,9.492,9.712,"0-No Error","No comment",0.5
"1772-066-262_F07","1772-066-262_F07",67,70714,39876,372,5742,6019,20789,8643,6056,"1772-066-262","F07","07","F",1544.127,914.866,10.288,10.006,"0-No Error","No comment",0.494
"1772-066-262_F08","1772-066-262_F08",68,53846,30853,236,2597,4839,15240,5230,3932,"1772-066-262","F08","08","F",1644.986,907.476,9.514,9.979,"0-No Error","No comment",0.481
"1772-066-262_F09","1772-066-262_F09",69,67498,38661,320,7185,5099,22292,12421,9008,"1772-066-262","F09","09","F",2643.025,924.675,10.446,10.218,"4-MultipleCells","2 + debris",0.536
"1772-066-262_F10","1772-066-262_F10",70,76181,41252,419,4711,5871,24513,11374,8282,"1772-066-262","F10","10","F",1222.774,912.711,9.774,10.102,"0-No Error","No comment",0.502
"1772-066-262_F11","1772-066-262_F11",71,82124,39395,1523,2458,7199,20974,4972,3443,"1772-066-262","F11","11","F",1512.788,909.325,9.525,9.686,"0-No Error","No comment",0.487
"1772-066-262_F12","1772-066-262_F12",72,73430,37872,1341,3447,4818,21484,8129,5826,"1772-066-262","F12","12","F",1148.159,910.101,10.793,9.946,"0-No Error","No comment",0.535
"1772-066-262_G01","1772-066-262_G01",73,59563,34835,334,2874,6304,18251,6689,4936,"1772-066-262","G01","01","G",2110.187,922.45,16.13,10.239,"6-Dead","No comment",0.519
"1772-066-262_G02","1772-066-262_G02",74,57593,33900,217,4127,5111,18614,8089,5986,"1772-066-262","G02","02","G",1811.034,918.122,10.078,9.865,"0-No Error","No comment",0.524
"1772-066-262_G03","1772-066-262_G03",75,41775,24930,212,2465,4155,12107,4421,3275,"1772-066-262","G03","03","G",1703.797,909.728,9.842,9.295,"0-No Error","No comment",0.486
"1772-066-262_G04","1772-066-262_G04",76,58919,34489,224,4003,5509,18508,6795,5056,"1772-066-262","G04","04","G",1335.126,927.2,9.573,9.661,"0-No Error","No comment",0.494
"1772-066-262_G05","1772-066-262_G05",77,65928,33061,384,2388,5740,17966,6878,4710,"1772-066-262","G05","05","G",1002.166,913.986,10.024,10.158,"0-No Error","No comment",0.481
"1772-066-262_G06","1772-066-262_G06",78,64722,34895,335,3227,6303,20734,8725,6119,"1772-066-262","G06","06","G",1455.45,911.746,9.423,9.628,"0-No Error","No comment",0.523
"1772-066-262_G07","1772-066-262_G07",79,67816,37436,370,4011,6303,20739,7959,5501,"1772-066-262","G07","07","G",2086.827,897.784,10.13,9.782,"0-No Error","No comment",0.495
"1772-066-262_G08","1772-066-262_G08",80,53496,32663,195,5820,3666,18834,8708,6317,"1772-066-262","G08","08","G",2479.144,901.792,11.257,9.663,"0-No Error","No comment",0.499
"1772-066-262_G09","1772-066-262_G09",81,61377,34666,335,4401,5368,20378,9197,6567,"1772-066-262","G09","09","G",2202.123,890.88,9.439,9.606,"0-No Error","No comment",0.515
"1772-066-262_G10","1772-066-262_G10",82,66273,34975,328,3010,6889,18746,7090,5115,"1772-066-262","G10","10","G",950.225,899.52,9.704,10.184,"0-No Error","No comment",0.555
"1772-066-262_G11","1772-066-262_G11",83,82321,40946,1460,3745,5094,23495,8755,6322,"1772-066-262","G11","11","G",1000.958,892.891,9.124,10.297,"0-No Error","No comment",0.543
"1772-066-262_G12","1772-066-262_G12",84,68592,34150,1132,2340,4782,19558,6342,4591,"1772-066-262","G12","12","G",1344.641,898.365,9.501,9.355,"0-No Error","No comment",0.559
"1772-066-262_H01","1772-066-262_H01",85,56801,32929,237,3721,5771,16793,5514,4129,"1772-066-262","H01","01","H",1709.013,885.852,9.345,10.043,"0-No Error","No comment",0.55
"1772-066-262_H02","1772-066-262_H02",86,54661,32960,164,3489,4713,19332,9794,6996,"1772-066-262","H02","02","H",2143.601,908.194,148.909,9.284,"6-Dead","3",0.547
"1772-066-262_H03","1772-066-262_H03",87,39032,23117,152,2676,4116,11771,4761,3662,"1772-066-262","H03","03","H",2744.352,913.332,10.321,9.345,"0-No Error","No comment",0.53
"1772-066-262_H04","1772-066-262_H04",88,54017,33020,201,3876,5389,18599,7631,5624,"1772-066-262","H04","04","H",1020.295,911.63,9.286,9.912,"0-No Error","No comment",0.544
"1772-066-262_H05","1772-066-262_H05",89,62141,32671,174,3899,5046,19507,8781,6434,"1772-066-262","H05","05","H",1580.574,891.867,9.82,9.61,"0-No Error","No comment",0.514
"1772-066-262_H06","1772-066-262_H06",90,58453,32598,214,3370,6317,16754,6040,4573,"1772-066-262","H06","06","H",1416.765,893.689,9.616,9.57,"0-No Error","No comment",0.53
"1772-066-262_H07","1772-066-262_H07",91,63371,37415,252,4460,5523,20422,8171,5883,"1772-066-262","H07","07","H",2507.478,970.187,31.137,10.454,"6-Dead","2",0.497
"1772-066-262_H08","1772-066-262_H08",92,50404,25635,232,59,7042,11698,1657,1087,"1772-066-262","H08","08","H",1887.459,957.934,168.584,10.173,"6-Dead","No comment",0.497
"1772-066-262_H09","1772-066-262_H09",93,58632,33129,211,3032,6138,18802,8436,6172,"1772-066-262","H09","09","H",2280.113,939.271,137.236,10.066,"6-Dead","No comment",0.564
"1772-066-262_H10","1772-066-262_H10",94,56362,32604,111,4630,4313,18804,9485,7171,"1772-066-262","H10","10","H",1254.476,954.433,10.138,10.088,"0-No Error","No comment",0.595
"1772-066-262_H11","1772-066-262_H11",95,100105,50037,724,3924,7757,29839,11042,7869,"1772-066-262","H11","11","H",1930.286,950.479,10.155,9.686,"0-No Error","No comment",0.62
"1772-066-262_H12","1772-066-262_H12",96,79341,40816,780,2592,6751,23983,7989,5542,"1772-066-262","H12","12","H",1018.302,966.397,10.528,10.316,"0-No Error","No comment",0.594
"1772-066-263_A01","1772-066-263_A01",97,67849,36543,112,2938,8773,19171,6924,5901,"1772-066-263","A01","01","A",2148.608,980.447,176.451,9.835,"6-Dead","No comment",0.622
"1772-066-263_A02","1772-066-263_A02",98,54108,28874,99,2835,6699,15134,5892,5213,"1772-066-263","A02","02","A",1916.714,1005.256,10.381,10.615,"0-No Error","No comment",0.626
"1772-066-263_A03","1772-066-263_A03",99,73193,40437,159,3996,8767,21415,8520,7229,"1772-066-263","A03","03","A",1793.307,1025.173,10.929,10.568,"0-No Error","No comment",0.614
"1772-066-263_A04","1772-066-263_A04",100,66419,38468,121,4770,5883,23405,11834,10127,"1772-066-263","A04","04","A",2023.444,1005.471,10.511,10.492,"0-No Error","No comment",0.624
"1772-066-263_A05","1772-066-263_A05",101,74054,41288,139,3799,8740,22059,9559,8080,"1772-066-263","A05","05","A",1662.758,995.622,10.492,10.554,"0-No Error","No comment",0.553
"1772-066-263_A06","1772-066-263_A06",102,54833,34145,81,5012,4935,20749,11774,10501,"1772-066-263","A06","06","A",1358.049,967.758,11.313,9.789,"4-MultipleCells","Maybe",0.559
"1772-066-263_A07","1772-066-263_A07",103,87821,53312,178,6434,8086,32804,16559,14321,"1772-066-263","A07","07","A",1888.173,973.953,15.423,10.303,"6-Dead","No comment",0.469
"1772-066-263_A08","1772-066-263_A08",104,63613,39336,113,4802,5953,24145,12288,10767,"1772-066-263","A08","08","A",1824.772,971.359,10.504,9.912,"0-No Error","No comment",0.586
"1772-066-263_A09","1772-066-263_A09",105,82093,45342,184,4511,9469,24659,10354,8648,"1772-066-263","A09","09","A",2185.536,975.616,143.486,10.782,"6-Dead","No comment",0.618
"1772-066-263_A10","1772-066-263_A10",106,84308,43623,195,3621,10424,22892,8723,7346,"1772-066-263","A10","10","A",2006.177,971.554,22.434,10.529,"6-Dead","No comment",0.66
"1772-066-263_A11","1772-066-263_A11",107,71777,39191,185,3304,7364,22227,9382,8046,"1772-066-263","A11","11","A",1365.698,965.279,10.311,10.271,"0-No Error","No comment",0.657
"1772-066-263_A12","1772-066-263_A12",108,88254,44553,460,4248,8759,24062,9497,8074,"1772-066-263","A12","12","A",1711.063,973.271,10.211,10.616,"4-MultipleCells","Maybe",0.697
"1772-066-263_B01","1772-066-263_B01",109,50322,29716,52,3737,5191,17129,9600,8321,"1772-066-263","B01","01","B",1650.934,963.534,10.605,10.204,"0-No Error","No comment",0.617
"1772-066-263_B02","1772-066-263_B02",110,45782,26474,55,3674,4536,15224,8453,7495,"1772-066-263","B02","02","B",1712.087,970.742,10.603,9.739,"0-No Error","No comment",0.636
"1772-066-263_B03","1772-066-263_B03",111,64298,36310,98,5475,7628,19002,9255,7879,"1772-066-263","B03","03","B",1397.81,970.416,13.387,9.926,"6-Dead","No comment",0.625
"1772-066-263_B04","1772-066-263_B04",112,62718,37507,58,5587,5413,22658,13383,11548,"1772-066-263","B04","04","B",1642.064,968.49,10.697,10.964,"4-MultipleCells","Maybe",0.558
"1772-066-263_B05","1772-066-263_B05",113,71461,40832,112,5495,7163,23554,12984,11074,"1772-066-263","B05","05","B",1417.013,969.346,11.078,10.08,"4-MultipleCells","Maybe",0.576
"1772-066-263_B06","1772-066-263_B06",114,48242,27120,50,3120,4959,14561,7595,6618,"1772-066-263","B06","06","B",1864.524,961.965,10.982,10.274,"0-No Error","No comment",0.583
"1772-066-263_B07","1772-066-263_B07",115,63970,37158,79,4268,5812,21963,11571,9892,"1772-066-263","B07","07","B",2041.626,957.661,10.098,10.508,"0-No Error","No comment",0.649
"1772-066-263_B08","1772-066-263_B08",116,52450,30826,103,4002,5316,17838,9582,8332,"1772-066-263","B08","08","B",2908.75,956.828,10.345,9.531,"3-OutOfFocus","No comment",0.628
"1772-066-263_B09","1772-066-263_B09",117,50889,29672,73,4629,4219,18098,10876,9704,"1772-066-263","B09","09","B",3057.258,964.553,10.894,10.722,"3-OutOfFocus","No comment",0.613
"1772-066-263_B10","1772-066-263_B10",118,54578,30587,70,3125,5399,18073,9853,8483,"1772-066-263","B10","10","B",1522.402,966.486,10.936,10.144,"0-No Error","No comment",0.623
"1772-066-263_B11","1772-066-263_B11",119,54806,30772,87,3107,5246,17747,9082,7801,"1772-066-263","B11","11","B",1316.443,953.075,10.263,9.839,"3-OutOfFocus","No comment",0.614
"1772-066-263_B12","1772-066-263_B12",120,56259,28944,129,3110,5678,15716,7510,6455,"1772-066-263","B12","12","B",1678.036,960.32,10.726,9.897,"3-OutOfFocus","No comment",0.683
"1772-066-263_C01","1772-066-263_C01",121,50257,28831,77,3447,4624,16764,9042,7955,"1772-066-263","C01","01","C",3694.162,3041.288,11.021,10.7,"3-OutOfFocus","No comment",0.733
"1772-066-263_C02","1772-066-263_C02",122,57474,30725,61,3298,5772,16992,8181,7191,"1772-066-263","C02","02","C",2710.7,2622.874,10.605,10.571,"3-OutOfFocus","No comment",0.705
"1772-066-263_C03","1772-066-263_C03",123,57734,42360,79,4839,2559,30621,19798,19236,"1772-066-263","C03","03","C",1085.973,1050.852,10.372,10.014,"5-Control","Positive control",0.259
"1772-066-263_C04","1772-066-263_C04",124,54539,29754,70,2994,5643,15974,7563,6506,"1772-066-263","C04","04","C",2364.856,953.454,10.662,10.17,"3-OutOfFocus","No comment",0.628
"1772-066-263_C05","1772-066-263_C05",125,55613,33060,61,3513,4915,20459,11650,10037,"1772-066-263","C05","05","C",2457.457,962.381,10.545,10.767,"3-OutOfFocus","No comment",0.578
"1772-066-263_C06","1772-066-263_C06",126,47908,27892,39,3076,4539,16287,9091,7974,"1772-066-263","C06","06","C",2018.733,960.337,12.053,10.499,"4-MultipleCells","2",0.584
"1772-066-263_C07","1772-066-263_C07",127,61010,35332,85,3682,5854,20963,10766,9212,"1772-066-263","C07","07","C",2180.93,960.744,10.288,10.126,"0-No Error","No comment",0.668
"1772-066-263_C08","1772-066-263_C08",128,55273,26945,105,1464,6762,13604,4731,4002,"1772-066-263","C08","08","C",1622.19,976.612,16.378,10.398,"6-Dead","No comment",0.771
"1772-066-263_C09","1772-066-263_C09",129,62451,33446,65,3571,6120,18748,9442,8232,"1772-066-263","C09","09","C",2355.117,2217.103,10.025,10.693,"0-No Error","No comment",0.688
"1772-066-263_C10","1772-066-263_C10",130,61943,34807,89,4306,5984,20124,10772,9448,"1772-066-263","C10","10","C",1322.855,965.856,10.73,10.62,"0-No Error","No comment",0.602
"1772-066-263_C11","1772-066-263_C11",131,63274,34930,122,3714,6034,20593,11147,9419,"1772-066-263","C11","11","C",1492.83,962.587,10.441,9.947,"4-MultipleCells","2",0.614
"1772-066-263_C12","1772-066-263_C12",132,60426,32018,316,3853,5462,17327,8224,7009,"1772-066-263","C12","12","C",1891.718,971.066,11.105,10.277,"4-MultipleCells","Maybe",0.66
"1772-066-263_D01","1772-066-263_D01",133,54881,32730,70,4817,4745,19236,10534,9042,"1772-066-263","D01","01","D",1772.722,900.514,10.377,9.94,"4-MultipleCells","Maybe",0.58
"1772-066-263_D02","1772-066-263_D02",134,54135,30007,60,3051,5081,17137,8847,7771,"1772-066-263","D02","02","D",3756.134,903.334,9.89,9.743,"3-OutOfFocus","No comment",0.661
"1772-066-263_D03","1772-066-263_D03",135,66672,34780,90,2271,7556,18854,7475,6242,"1772-066-263","D03","03","D",2155.11,951.045,10.081,10.124,"0-No Error","No comment",0.675
"1772-066-263_D04","1772-066-263_D04",136,61307,35761,73,3413,5144,21859,11684,10157,"1772-066-263","D04","04","D",1755.105,945.631,9.658,10.154,"4-MultipleCells","2",0.631
"1772-066-263_D05","1772-066-263_D05",137,64021,33182,102,2240,7073,18186,7615,6343,"1772-066-263","D05","05","D",1601.137,941.573,9.728,10.057,"3-OutOfFocus","No comment",0.635
"1772-066-263_D06","1772-066-263_D06",138,55628,28590,87,2244,5597,15409,6464,5466,"1772-066-263","D06","06","D",1485.809,894.507,9.615,8.978,"0-No Error","No comment",0.635
"1772-066-263_D07","1772-066-263_D07",139,67062,35769,109,2959,6575,19858,8780,7498,"1772-066-263","D07","07","D",2154.193,896.335,10.277,9.575,"0-No Error","No comment",0.658
"1772-066-263_D08","1772-066-263_D08",140,54542,27827,82,2072,5328,15500,7171,6205,"1772-066-263","D08","08","D",1694.975,891.036,10.128,9.444,"0-No Error","No comment",0.672
"1772-066-263_D09","1772-066-263_D09",141,62075,30797,112,2112,7004,16054,6205,5335,"1772-066-263","D09","09","D",1815.251,894.63,9.666,9.464,"0-No Error","No comment",0.696
"1772-066-263_D10","1772-066-263_D10",142,64755,35289,118,3127,6924,19974,9780,8158,"1772-066-263","D10","10","D",1247.323,895.365,9.385,9.728,"0-No Error","No comment",0.536
"1772-066-263_D11","1772-066-263_D11",143,57276,24629,128,32,7605,10078,933,783,"1772-066-263","D11","11","D",2152.577,893.82,258.235,9.369,"6-Dead","No comment",0.708
"1772-066-263_D12","1772-066-263_D12",144,64384,34165,249,2609,6111,19383,9183,7812,"1772-066-263","D12","12","D",1350.392,897.825,9.892,9.714,"0-No Error","No comment",0.628
"1772-066-263_E01","1772-066-263_E01",145,64398,34964,84,3167,6965,19341,8823,7468,"1772-066-263","E01","01","E",2694.292,882.855,11.45,9.24,"2-Debris","No comment",0.628
"1772-066-263_E02","1772-066-263_E02",146,66379,37041,94,3733,5993,21926,11105,9590,"1772-066-263","E02","02","E",1781.455,871.941,9.552,9.18,"0-No Error","No comment",0.619
"1772-066-263_E03","1772-066-263_E03",147,64882,37567,96,3567,6279,22865,11757,10004,"1772-066-263","E03","03","E",2786.288,870.743,8.973,9.302,"4-MultipleCells","2",0.627
"1772-066-263_E04","1772-066-263_E04",148,79242,42820,124,3157,9036,23099,9410,7752,"1772-066-263","E04","04","E",985.468,866.469,9.263,8.603,"0-No Error","No comment",0.617
"1772-066-263_E05","1772-066-263_E05",149,81251,43846,98,4076,8454,23396,9800,8111,"1772-066-263","E05","05","E",1666.323,873.503,9.552,9.897,"0-No Error","No comment",0.587
"1772-066-263_E06","1772-066-263_E06",150,55618,31845,89,3005,4894,18558,9346,8009,"1772-066-263","E06","06","E",1378.707,871.419,9.334,8.88,"0-No Error","No comment",0.58
"1772-066-263_E07","1772-066-263_E07",151,80074,43650,128,4126,6798,26172,13041,11443,"1772-066-263","E07","07","E",2912.225,871.669,9.603,9.433,"4-MultipleCells","Maybe",0.645
"1772-066-263_E08","1772-066-263_E08",152,60289,34650,115,3806,5624,20313,9712,8438,"1772-066-263","E08","08","E",2277.927,864.806,10.369,8.972,"0-No Error","No comment",0.564
"1772-066-263_E09","1772-066-263_E09",153,68688,37998,105,3310,6656,22677,11626,10093,"1772-066-263","E09","09","E",2155.955,872.556,9.521,9.617,"0-No Error","No comment",0.63
"1772-066-263_E10","1772-066-263_E10",154,83030,44691,146,3997,8738,24758,10972,9101,"1772-066-263","E10","10","E",1390.909,868.292,9.479,9.985,"0-No Error","No comment",0.569
"1772-066-263_E11","1772-066-263_E11",155,93587,46873,346,2979,9637,25279,9934,8115,"1772-066-263","E11","11","E",1109.761,862.754,9.172,8.881,"0-No Error","No comment",0.645
"1772-066-263_E12","1772-066-263_E12",156,83488,44006,449,2908,7840,25536,12244,10219,"1772-066-263","E12","12","E",1496.652,861.608,9.14,9.3,"0-No Error","No comment",0.606
"1772-066-263_F01","1772-066-263_F01",157,72240,38943,79,2999,8218,21153,8953,7630,"1772-066-263","F01","01","F",1573.966,873.082,9.506,9.066,"0-No Error","No comment",0.684
"1772-066-263_F02","1772-066-263_F02",158,61967,36673,78,3969,5577,22203,11134,9653,"1772-066-263","F02","02","F",2123.094,954.42,10.508,9.855,"0-No Error","No comment",0.614
"1772-066-263_F03","1772-066-263_F03",159,70998,37499,115,2522,9267,20050,7530,6536,"1772-066-263","F03","03","F",1720.923,954.476,10.316,10.031,"0-No Error","No comment",0.65
"1772-066-263_F04","1772-066-263_F04",160,81511,42596,108,2685,9875,22295,7923,6759,"1772-066-263","F04","04","F",1498.708,953.063,9.479,9.806,"0-No Error","No comment",0.623
"1772-066-263_F05","1772-066-263_F05",161,90749,47239,138,2730,11614,25260,9106,7509,"1772-066-263","F05","05","F",1114.214,920.806,9.912,9.641,"0-No Error","No comment",0.627
"1772-066-263_F06","1772-066-263_F06",162,68180,34095,104,2172,8817,17391,6071,5020,"1772-066-263","F06","06","F",1363.335,875.391,10.127,9.285,"0-No Error","No comment",0.62
"1772-066-263_F07","1772-066-263_F07",163,76694,41011,118,2635,8982,23276,9375,7996,"1772-066-263","F07","07","F",1740.182,882.763,11.047,9.142,"0-No Error","No comment",0.663
"1772-066-263_F08","1772-066-263_F08",164,58971,35900,107,3721,4583,23352,12233,10778,"1772-066-263","F08","08","F",2064.73,868.655,9.832,9.11,"0-No Error","No comment",0.615
"1772-066-263_F09","1772-066-263_F09",165,79096,42558,134,2989,9038,23925,9590,8014,"1772-066-263","F09","09","F",2066.496,863.749,11.469,8.93,"6-Dead","No comment",0.586
"1772-066-263_F10","1772-066-263_F10",166,88336,46174,148,3081,10306,25311,9693,7778,"1772-066-263","F10","10","F",1165.211,878.267,9.141,9.349,"0-No Error","No comment",0.584
"1772-066-263_F11","1772-066-263_F11",167,71266,42818,159,4728,5208,28165,16408,14233,"1772-066-263","F11","11","F",1872.5,875.744,9.117,9.13,"4-MultipleCells","2",0.542
"1772-066-263_F12","1772-066-263_F12",168,79530,42952,314,3162,7693,25298,12105,10002,"1772-066-263","F12","12","F",1353.567,977.655,10.721,10.376,"0-No Error","No comment",0.614
"1772-066-263_G01","1772-066-263_G01",169,56472,32795,51,2998,6280,18919,8867,7685,"1772-066-263","G01","01","G",2002.077,858.109,9.279,9.152,"4-MultipleCells","Maybe",0.574
"1772-066-263_G02","1772-066-263_G02",170,61284,36282,67,3714,6275,21677,9749,8520,"1772-066-263","G02","02","G",1777.268,925.545,10.043,9.828,"0-No Error","No comment",0.58
"1772-066-263_G03","1772-066-263_G03",171,48101,28608,79,2615,5027,17245,8082,6983,"1772-066-263","G03","03","G",1781.628,919.444,10.409,9.566,"2-Debris","Leak",0.554
"1772-066-263_G04","1772-066-263_G04",172,58671,37995,70,4184,4504,24794,14238,12426,"1772-066-263","G04","04","G",1766.55,860.271,9.48,9.145,"4-MultipleCells","2",0.517
"1772-066-263_G05","1772-066-263_G05",173,61299,33541,94,2522,7480,18222,6985,6071,"1772-066-263","G05","05","G",1412.218,927.049,9.687,10.173,"0-No Error","No comment",0.558
"1772-066-263_G06","1772-066-263_G06",174,58151,32008,79,2449,6920,16902,6147,5373,"1772-066-263","G06","06","G",1091.648,853.802,9.053,9.013,"0-No Error","No comment",0.605
"1772-066-263_G07","1772-066-263_G07",175,68484,39774,102,4174,7301,23113,9949,8587,"1772-066-263","G07","07","G",2604.617,864.881,9.957,8.661,"0-No Error","No comment",0.576
"1772-066-263_G08","1772-066-263_G08",176,57162,34165,112,3612,5483,21038,9595,8409,"1772-066-263","G08","08","G",1995.225,862.237,9.943,8.867,"2-Debris","Leak ?",0.53
"1772-066-263_G09","1772-066-263_G09",177,67770,38314,130,5268,7126,21263,9554,8174,"1772-066-263","G09","09","G",2202.64,982.852,14.323,10.478,"6-Dead","No comment",0.586
"1772-066-263_G10","1772-066-263_G10",178,69504,39583,117,3530,7701,23024,10162,8769,"1772-066-263","G10","10","G",1573.825,874.27,9.418,9.198,"0-No Error","No comment",0.574
"1772-066-263_G11","1772-066-263_G11",179,53996,32883,105,4025,4758,20129,10334,9160,"1772-066-263","G11","11","G",1811.23,863.459,9.564,9.402,"4-MultipleCells","Maybe",0.499
"1772-066-263_G12","1772-066-263_G12",180,65065,34576,144,2272,7617,19047,6994,6000,"1772-066-263","G12","12","G",1414.186,863.655,8.911,8.922,"0-No Error","No comment",0.661
"1772-066-263_H01","1772-066-263_H01",181,55986,34303,65,4427,5989,19734,9447,8308,"1772-066-263","H01","01","H",2022.624,992.218,12.265,9.968,"2-Debris","Leak ?",0.562
"1772-066-263_H02","1772-066-263_H02",182,67197,34785,97,1029,10850,16712,3313,2686,"1772-066-263","H02","02","H",1106.716,980.628,11.27,10.12,"0-No Error","No comment",0.609
"1772-066-263_H03","1772-066-263_H03",183,64599,37919,128,3764,7676,20996,9187,7753,"1772-066-263","H03","03","H",2406.554,978.341,10.943,10.622,"0-No Error","No comment",0.586
"1772-066-263_H04","1772-066-263_H04",184,76712,41814,94,4232,9071,22428,9130,7707,"1772-066-263","H04","04","H",1234.025,966.071,10.75,10.135,"0-No Error","No comment",0.599
"1772-066-263_H05","1772-066-263_H05",185,78370,43397,113,3862,9057,23615,9770,8223,"1772-066-263","H05","05","H",1505.937,978.497,10.426,10.221,"0-No Error","No comment",0.561
"1772-066-263_H06","1772-066-263_H06",186,59925,32505,87,2753,7304,17288,6586,5704,"1772-066-263","H06","06","H",1377.081,973.304,10.092,10.186,"0-No Error","No comment",0.581
"1772-066-263_H07","1772-066-263_H07",187,72735,45149,116,6030,7135,27754,13269,11276,"1772-066-263","H07","07","H",3397.135,989.742,11.06,10.219,"0-No Error","No comment",0.496
"1772-066-263_H08","1772-066-263_H08",188,58793,32415,140,3101,7037,17857,6738,5785,"1772-066-263","H08","08","H",2843.578,935.475,27.86,9.309,"6-Dead","No comment",0.563
"1772-066-263_H09","1772-066-263_H09",189,65138,34438,222,34,9744,15109,45,45,"1772-066-263","H09","09","H",2591.451,885.348,13.605,9.08,"5-Control","Negative control",-0.217
"1772-066-263_H10","1772-066-263_H10",190,62896,37767,123,4407,5500,23109,12385,11119,"1772-066-263","H10","10","H",1007.128,882.218,9.117,8.964,"4-MultipleCells","2",0.573
"1772-066-263_H11","1772-066-263_H11",191,52244,29448,138,2695,5183,17278,7693,6746,"1772-066-263","H11","11","H",1098.446,877.423,9.412,9.071,"0-No Error","No comment",0.606
"1772-066-263_H12","1772-066-263_H12",192,57275,30751,184,2398,6778,16614,6443,5560,"1772-066-263","H12","12","H",1209.559,1002.869,10.545,9.966,"0-No Error","No comment",0.636
